Frequency (Hz)	Level (dB)
0.672913	-122.028809
1.345825	-116.879005
2.018738	-111.921860
2.691650	-107.011459
3.364563	-100.785637
4.037476	-96.603737
4.710388	-94.286102
5.383301	-91.290169
6.056213	-88.655869
6.729126	-86.702278
7.402039	-85.486183
8.074951	-83.762650
8.747864	-81.948112
9.420776	-81.065407
10.093689	-80.501625
10.766602	-78.850380
11.439514	-76.743927
12.112427	-76.231636
12.785339	-76.233269
13.458252	-75.303459
14.131165	-74.150169
14.804077	-73.511063
15.476990	-71.196747
16.149902	-70.080063
16.822815	-69.981125
17.495728	-70.295990
18.168640	-69.167763
18.841553	-68.255676
19.514465	-68.342896
20.187378	-67.460312
20.860291	-66.416908
21.533203	-65.977371
22.206116	-66.024994
22.879028	-65.362953
23.551941	-64.518494
24.224854	-63.509323
24.897766	-63.111546
25.570679	-62.795315
26.243591	-62.761017
26.916504	-63.072933
27.589417	-62.915257
28.262329	-63.040085
28.935242	-63.041283
29.608154	-63.095913
30.281067	-63.040337
30.953979	-61.926777
31.626892	-61.915955
32.299805	-61.931549
32.972717	-61.362003
33.645630	-61.547859
34.318542	-61.648228
34.991455	-61.746078
35.664368	-61.811714
36.337280	-60.931519
37.010193	-60.373146
37.683105	-60.846806
38.356018	-60.488613
39.028931	-60.654087
39.701843	-60.693020
40.374756	-59.944027
41.047668	-59.448322
41.720581	-60.161572
42.393494	-61.115665
43.066406	-59.018402
43.739319	-58.993896
44.412231	-59.022671
45.085144	-59.710533
45.758057	-59.764362
46.430969	-58.249310
47.103882	-58.165073
47.776794	-57.415699
48.449707	-57.764030
49.122620	-57.903316
49.795532	-57.785583
50.468445	-57.267509
51.141357	-58.382019
51.814270	-57.775864
52.487183	-56.461018
53.160095	-56.249123
53.833008	-57.437424
54.505920	-58.699219
55.178833	-57.575222
55.851746	-57.307255
56.524658	-56.531101
57.197571	-56.603619
57.870483	-55.021320
58.543396	-55.326393
59.216309	-56.014187
59.889221	-56.275963
60.562134	-56.428181
61.235046	-55.932079
61.907959	-53.964314
62.580872	-53.645844
63.253784	-54.138844
63.926697	-54.788273
64.599609	-55.278419
65.272522	-55.112316
65.945435	-54.599361
66.618347	-54.373898
67.291260	-54.328033
67.964172	-54.157631
68.637085	-54.630367
69.309998	-54.461353
69.982910	-54.913914
70.655823	-53.973190
71.328735	-54.053123
72.001648	-54.026573
72.674561	-53.174793
73.347473	-53.136791
74.020386	-53.662155
74.693298	-54.159153
75.366211	-54.486809
76.039124	-54.067337
76.712036	-53.695564
77.384949	-52.495853
78.057861	-52.502789
78.730774	-53.052155
79.403687	-52.665977
80.076599	-53.043316
80.749512	-53.747448
81.422424	-52.578110
82.095337	-53.079216
82.768250	-52.212425
83.441162	-51.031078
84.114075	-51.634777
84.786987	-52.385387
85.459900	-53.419659
86.132812	-52.532852
86.805725	-51.516182
87.478638	-51.754143
88.151550	-51.709843
88.824463	-52.116863
89.497375	-52.342304
90.170288	-50.943359
90.843201	-51.299744
91.516113	-52.563419
92.189026	-52.601562
92.861938	-51.979752
93.534851	-50.794880
94.207764	-49.884449
94.880676	-50.174786
95.553589	-50.732048
96.226501	-51.977962
96.899414	-51.885281
97.572327	-51.825954
98.245239	-51.148582
98.918152	-52.225330
99.591064	-51.417778
100.263977	-51.523376
100.936890	-50.846939
101.609802	-50.840271
102.282715	-50.606075
102.955627	-50.625324
103.628540	-50.278118
104.301453	-50.441456
104.974365	-51.144901
105.647278	-50.839722
106.320190	-50.086166
106.993103	-50.654610
107.666016	-49.160351
108.338928	-49.100533
109.011841	-49.273937
109.684753	-49.207626
110.357666	-51.226685
111.030579	-50.116711
111.703491	-49.921753
112.376404	-50.043903
113.049316	-49.647911
113.722229	-50.241276
114.395142	-50.401237
115.068054	-50.428818
115.740967	-49.210533
116.413879	-48.505154
117.086792	-49.557724
117.759705	-50.045738
118.432617	-50.367962
119.105530	-49.804722
119.778442	-49.726284
120.451355	-50.304752
121.124268	-49.864571
121.797180	-48.648811
122.470093	-48.232761
123.143005	-48.477180
123.815918	-49.559547
124.488831	-49.559189
125.161743	-48.321693
125.834656	-47.929882
126.507568	-48.162457
127.180481	-48.592533
127.853394	-48.408585
128.526306	-47.553848
129.199219	-46.957668
129.872131	-48.235645
130.545044	-49.080322
131.217957	-50.215145
131.890869	-49.482620
132.563782	-49.770924
133.236694	-49.523258
133.909607	-50.004658
134.582520	-49.110664
135.255432	-48.073105
135.928345	-48.857388
136.601257	-50.683979
137.274170	-50.628811
137.947083	-49.882473
138.619995	-49.339256
139.292908	-48.387043
139.965820	-48.964069
140.638733	-49.230125
141.311646	-49.148945
141.984558	-50.142654
142.657471	-50.112484
143.330383	-48.654358
144.003296	-49.647018
144.676208	-49.120041
145.349121	-47.942070
146.022034	-48.437103
146.694946	-49.145218
147.367859	-48.376953
148.040771	-49.155544
148.713684	-49.082081
149.386597	-48.206711
150.059509	-48.717236
150.732422	-48.460041
151.405334	-47.960945
152.078247	-47.776642
152.751160	-47.478958
153.424072	-47.730915
154.096985	-46.908478
154.769897	-48.280384
155.442810	-48.476524
156.115723	-48.225025
156.788635	-48.490784
157.461548	-48.454475
158.134460	-49.384502
158.807373	-48.587479
159.480286	-47.330311
160.153198	-47.985783
160.826111	-49.275150
161.499023	-49.018845
162.171936	-47.842453
162.844849	-47.541149
163.517761	-48.390331
164.190674	-47.964825
164.863586	-48.550293
165.536499	-48.621735
166.209412	-48.509010
166.882324	-48.252033
167.555237	-48.743446
168.228149	-48.250145
168.901062	-48.660160
169.573975	-48.519474
170.246887	-48.310871
170.919800	-48.291702
171.592712	-48.001854
172.265625	-48.000961
172.938538	-48.614254
173.611450	-48.638035
174.284363	-48.244720
174.957275	-48.451992
175.630188	-47.978470
176.303101	-48.783695
176.976013	-48.874008
177.648926	-48.701645
178.321838	-48.767868
178.994751	-50.081043
179.667664	-50.757229
180.340576	-49.973972
181.013489	-48.674934
181.686401	-48.170948
182.359314	-48.552296
183.032227	-48.475464
183.705139	-48.167484
184.378052	-49.259655
185.050964	-48.717499
185.723877	-48.367290
186.396790	-48.988968
187.069702	-49.236122
187.742615	-47.620800
188.415527	-47.386650
189.088440	-47.871788
189.761353	-48.571152
190.434265	-49.307545
191.107178	-48.152340
191.780090	-48.559147
192.453003	-49.762951
193.125916	-48.417622
193.798828	-49.073765
194.471741	-49.306969
195.144653	-49.203415
195.817566	-48.559170
196.490479	-48.965450
197.163391	-48.753860
197.836304	-48.660713
198.509216	-48.911850
199.182129	-48.669537
199.855042	-49.042896
200.527954	-49.409645
201.200867	-48.094536
201.873779	-48.162029
202.546692	-48.555481
203.219604	-48.338825
203.892517	-48.437782
204.565430	-48.525196
205.238342	-48.956409
205.911255	-49.206337
206.584167	-48.920029
207.257080	-49.324631
207.929993	-50.264797
208.602905	-49.559704
209.275818	-49.491829
209.948730	-49.441479
210.621643	-48.533298
211.294556	-49.460094
211.967468	-48.838921
212.640381	-47.898132
213.313293	-47.183838
213.986206	-47.847328
214.659119	-47.946148
215.332031	-47.520866
216.004944	-48.000740
216.677856	-49.197937
217.350769	-49.394218
218.023682	-48.452877
218.696594	-47.575844
219.369507	-47.648602
220.042419	-49.004791
220.715332	-48.599388
221.388245	-47.528309
222.061157	-48.906631
222.734070	-48.963081
223.406982	-49.188847
224.079895	-49.275169
224.752808	-48.300240
225.425720	-48.475433
226.098633	-49.466316
226.771545	-49.828182
227.444458	-48.566677
228.117371	-50.053616
228.790283	-49.887615
229.463196	-49.555523
230.136108	-49.032379
230.809021	-50.270500
231.481934	-50.818436
232.154846	-50.042274
232.827759	-49.367023
233.500671	-49.870300
234.173584	-49.867210
234.846497	-49.336075
235.519409	-48.944450
236.192322	-49.708912
236.865234	-49.504364
237.538147	-49.054169
238.211060	-48.507851
238.883972	-48.550003
239.556885	-48.830105
240.229797	-49.831936
240.902710	-49.611198
241.575623	-49.058971
242.248535	-49.808002
242.921448	-51.244019
243.594360	-52.615589
244.267273	-51.765774
244.940186	-49.911278
245.613098	-50.293571
246.286011	-51.414307
246.958923	-50.543755
247.631836	-50.962193
248.304749	-50.737019
248.977661	-50.392540
249.650574	-49.900959
250.323486	-50.036160
250.996399	-50.245564
251.669312	-50.914211
252.342224	-50.856762
253.015137	-50.132687
253.688049	-49.775715
254.360962	-50.269066
255.033875	-49.778008
255.706787	-49.947483
256.379700	-50.944324
257.052612	-49.547421
257.725525	-49.950935
258.398438	-50.759968
259.071350	-50.563431
259.744263	-50.084450
260.417175	-50.364620
261.090088	-51.349495
261.763000	-50.506638
262.435913	-49.213936
263.108826	-50.167618
263.781738	-50.840210
264.454651	-50.111324
265.127563	-50.436401
265.800476	-51.515621
266.473389	-51.647564
267.146301	-50.258350
267.819214	-50.033150
268.492126	-50.845390
269.165039	-50.619362
269.837952	-50.570503
270.510864	-51.855556
271.183777	-52.342625
271.856689	-52.299252
272.529602	-51.690884
273.202515	-51.471607
273.875427	-51.066265
274.548340	-51.128258
275.221252	-51.298500
275.894165	-50.235523
276.567078	-51.008827
277.239990	-50.710773
277.912903	-51.622692
278.585815	-52.251671
279.258728	-52.132973
279.931641	-50.317333
280.604553	-49.986401
281.277466	-51.168037
281.950378	-52.407768
282.623291	-51.538116
283.296204	-50.793221
283.969116	-50.841824
284.642029	-52.238419
285.314941	-52.925865
285.987854	-52.846523
286.660767	-52.394520
287.333679	-52.010914
288.006592	-51.941639
288.679504	-51.766571
289.352417	-52.507763
290.025330	-51.857460
290.698242	-50.920761
291.371155	-51.801998
292.044067	-52.601433
292.716980	-52.521801
293.389893	-51.586330
294.062805	-51.496197
294.735718	-51.448086
295.408630	-52.445984
296.081543	-52.572117
296.754456	-52.304619
297.427368	-52.352207
298.100281	-51.496826
298.773193	-52.740395
299.446106	-53.120308
300.119019	-52.666866
300.791931	-51.780022
301.464844	-50.473484
302.137756	-52.011391
302.810669	-52.143391
303.483582	-51.346668
304.156494	-50.494942
304.829407	-50.844669
305.502319	-51.106079
306.175232	-50.513546
306.848145	-50.674469
307.521057	-51.079933
308.193970	-51.473751
308.866882	-52.927101
309.539795	-52.857712
310.212708	-52.070225
310.885620	-52.260292
311.558533	-53.047955
312.231445	-51.903679
312.904358	-52.028389
313.577271	-52.659794
314.250183	-52.143764
314.923096	-51.836899
315.596008	-51.549820
316.268921	-52.335003
316.941833	-52.047886
317.614746	-51.009827
318.287659	-50.544109
318.960571	-51.763786
319.633484	-53.022808
320.306396	-52.824238
320.979309	-53.836067
321.652222	-52.775433
322.325134	-51.969963
322.998047	-52.372124
323.670959	-52.607555
324.343872	-51.863548
325.016785	-51.998829
325.689697	-52.599949
326.362610	-52.464020
327.035522	-53.262657
327.708435	-52.068073
328.381348	-51.833889
329.054260	-52.933483
329.727173	-53.385464
330.400085	-53.486038
331.072998	-52.524132
331.745911	-52.215515
332.418823	-53.071846
333.091736	-51.600273
333.764648	-52.417816
334.437561	-53.682404
335.110474	-54.233807
335.783386	-52.743210
336.456299	-52.372013
337.129211	-53.279980
337.802124	-53.763252
338.475037	-52.693455
339.147949	-52.690517
339.820862	-53.413055
340.493774	-53.467735
341.166687	-54.094940
341.839600	-52.768738
342.512512	-52.706387
343.185425	-53.372620
343.858337	-53.341995
344.531250	-53.266663
345.204163	-52.156746
345.877075	-52.985928
346.549988	-53.275860
347.222900	-52.724770
347.895813	-53.480518
348.568726	-53.331184
349.241638	-53.782681
349.914551	-54.112690
350.587463	-54.099125
351.260376	-52.886742
351.933289	-51.957413
352.606201	-52.555481
353.279114	-53.032146
353.952026	-53.273045
354.624939	-52.353062
355.297852	-53.665977
355.970764	-52.559483
356.643677	-51.987667
357.316589	-52.873173
357.989502	-53.306217
358.662415	-54.556309
359.335327	-54.486565
360.008240	-54.745461
360.681152	-53.726059
361.354065	-53.343525
362.026978	-53.224159
362.699890	-53.082027
363.372803	-53.416790
364.045715	-52.440098
364.718628	-53.178085
365.391541	-53.550220
366.064453	-52.556976
366.737366	-52.619240
367.410278	-52.828655
368.083191	-53.458878
368.756104	-54.800133
369.429016	-55.073868
370.101929	-53.840858
370.774841	-53.082165
371.447754	-54.031376
372.120667	-55.289665
372.793579	-54.803436
373.466492	-54.477146
374.139404	-53.650955
374.812317	-54.392570
375.485229	-53.712440
376.158142	-53.242668
376.831055	-53.344666
377.503967	-53.504799
378.176880	-52.963280
378.849792	-53.213463
379.522705	-54.804741
380.195618	-53.999870
380.868530	-53.900845
381.541443	-53.430168
382.214355	-53.790306
382.887268	-53.447582
383.560181	-54.810268
384.233093	-54.805828
384.906006	-53.822468
385.578918	-53.933159
386.251831	-54.861202
386.924744	-54.312916
387.597656	-55.186348
388.270569	-53.259106
388.943481	-52.854588
389.616394	-53.855564
390.289307	-53.500023
390.962219	-54.182896
391.635132	-53.420826
392.308044	-53.391354
392.980957	-53.804733
393.653870	-54.245445
394.326782	-54.310501
394.999695	-54.530716
395.672607	-53.743942
396.345520	-54.514290
397.018433	-54.410461
397.691345	-54.689602
398.364258	-55.433037
399.037170	-54.580219
399.710083	-54.037853
400.382996	-53.810799
401.055908	-54.097332
401.728821	-54.741615
402.401733	-54.156013
403.074646	-53.731323
403.747559	-53.886452
404.420471	-53.939316
405.093384	-53.461155
405.766296	-53.238575
406.439209	-55.169300
407.112122	-55.163231
407.785034	-55.557926
408.457947	-55.637226
409.130859	-54.517170
409.803772	-54.411400
410.476685	-55.747009
411.149597	-56.043701
411.822510	-55.947617
412.495422	-55.746666
413.168335	-55.687012
413.841248	-55.731560
414.514160	-55.732292
415.187073	-54.604267
415.859985	-55.909630
416.532898	-56.059490
417.205811	-55.740376
417.878723	-55.570065
418.551636	-55.647449
419.224548	-56.548195
419.897461	-55.694981
420.570374	-56.504284
421.243286	-55.666145
421.916199	-54.761444
422.589111	-56.222836
423.262024	-56.100739
423.934937	-55.521847
424.607849	-54.920628
425.280762	-54.952789
425.953674	-55.160595
426.626587	-56.401100
427.299500	-56.609837
427.972412	-56.442921
428.645325	-56.628139
429.318237	-56.033100
429.991150	-55.678452
430.664062	-56.265358
431.336975	-55.228233
432.009888	-54.295708
432.682800	-54.516861
433.355713	-54.654678
434.028625	-55.033012
434.701538	-54.854195
435.374451	-54.740971
436.047363	-54.450645
436.720276	-54.979942
437.393188	-54.993660
438.066101	-54.980003
438.739014	-54.330200
439.411926	-55.285496
440.084839	-54.929909
440.757751	-54.480350
441.430664	-53.760639
442.103577	-54.373718
442.776489	-54.084927
443.449402	-54.329151
444.122314	-54.499874
444.795227	-54.195835
445.468140	-53.788677
446.141052	-54.326561
446.813965	-54.086170
447.486877	-53.499477
448.159790	-53.128822
448.832703	-53.584999
449.505615	-54.408447
450.178528	-54.373669
450.851440	-55.346077
451.524353	-55.399803
452.197266	-55.370708
452.870178	-55.362312
453.543091	-54.935577
454.216003	-55.318794
454.888916	-55.215405
455.561829	-55.823303
456.234741	-56.295044
456.907654	-54.679466
457.580566	-54.956211
458.253479	-55.555275
458.926392	-55.802101
459.599304	-55.332935
460.272217	-54.900608
460.945129	-56.045990
461.618042	-56.140270
462.290955	-57.047215
462.963867	-57.064232
463.636780	-56.260998
464.309692	-55.030972
464.982605	-54.973461
465.655518	-56.104488
466.328430	-55.865974
467.001343	-56.775490
467.674255	-56.381695
468.347168	-56.345097
469.020081	-56.336700
469.692993	-54.822651
470.365906	-54.766811
471.038818	-55.092346
471.711731	-55.872032
472.384644	-55.925468
473.057556	-56.838661
473.730469	-56.337521
474.403381	-55.604683
475.076294	-55.577152
475.749207	-55.618607
476.422119	-56.244568
477.095032	-57.165604
477.767944	-56.764473
478.440857	-55.461506
479.113770	-55.508251
479.786682	-56.551720
480.459595	-56.989742
481.132507	-57.328690
481.805420	-57.437366
482.478333	-56.921326
483.151245	-56.383831
483.824158	-57.108868
484.497070	-57.265102
485.169983	-57.387905
485.842896	-57.995285
486.515808	-57.703724
487.188721	-58.462402
487.861633	-57.532532
488.534546	-57.044941
489.207458	-56.526817
489.880371	-56.477139
490.553284	-57.933392
491.226196	-57.064636
491.899109	-56.926056
492.572021	-57.275684
493.244934	-57.244480
493.917847	-56.917156
494.590759	-57.431484
495.263672	-57.599621
495.936584	-58.398518
496.609497	-58.160648
497.282410	-57.122047
497.955322	-56.770172
498.628235	-57.735443
499.301147	-59.249592
499.974060	-58.929550
500.646973	-57.971359
501.319885	-57.732918
501.992798	-57.645935
502.665710	-58.821686
503.338623	-57.985329
504.011536	-57.163937
504.684448	-57.912582
505.357361	-57.821205
506.030273	-57.645370
506.703186	-57.085194
507.376099	-58.012955
508.049011	-57.961227
508.721924	-57.661652
509.394836	-57.401714
510.067749	-57.854145
510.740662	-57.788937
511.413574	-58.319382
512.086487	-58.583424
512.759399	-59.125412
513.432312	-58.837044
514.105225	-58.389957
514.778137	-58.442089
515.451050	-59.236454
516.123962	-58.985691
516.796875	-58.823715
517.469788	-57.973122
518.142700	-58.701691
518.815613	-58.722061
519.488525	-58.447475
520.161438	-59.163685
520.834351	-59.638565
521.507263	-59.525475
522.180176	-59.582253
522.853088	-59.288368
523.526001	-59.323822
524.198914	-58.791397
524.871826	-58.387596
525.544739	-57.815483
526.217651	-58.213600
526.890564	-60.106468
527.563477	-59.235130
528.236389	-59.009342
528.909302	-59.742168
529.582214	-59.402596
530.255127	-59.167336
530.928040	-59.295258
531.600952	-59.304523
532.273865	-59.693680
532.946777	-58.700302
533.619690	-59.268730
534.292603	-59.510448
534.965515	-58.887886
535.638428	-59.702423
536.311340	-59.459877
536.984253	-59.257931
537.657166	-59.345100
538.330078	-59.855389
539.002991	-60.483894
539.675903	-60.485035
540.348816	-60.675827
541.021729	-61.482769
541.694641	-61.261978
542.367554	-59.606796
543.040466	-59.879654
543.713379	-60.462421
544.386292	-61.336304
545.059204	-60.588551
545.732117	-59.766953
546.405029	-60.816357
547.077942	-60.300144
547.750854	-61.040733
548.423767	-60.705067
549.096680	-60.059013
549.769592	-59.635666
550.442505	-59.878384
551.115417	-60.184315
551.788330	-59.661385
552.461243	-60.044418
553.134155	-61.045700
553.807068	-61.108982
554.479980	-62.097672
555.152893	-63.053555
555.825806	-61.234062
556.498718	-60.071342
557.171631	-60.289639
557.844543	-60.392559
558.517456	-59.903030
559.190369	-60.022614
559.863281	-61.484520
560.536194	-61.468391
561.209106	-59.822296
561.882019	-58.773518
562.554932	-60.771282
563.227844	-61.115982
563.900757	-60.597752
564.573669	-60.322884
565.246582	-60.767082
565.919495	-60.912319
566.592407	-61.367859
567.265320	-62.569153
567.938232	-62.791637
568.611145	-61.477825
569.284058	-61.074211
569.956970	-61.907394
570.629883	-62.601437
571.302795	-61.865814
571.975708	-62.802818
572.648621	-60.899117
573.321533	-60.070080
573.994446	-60.383427
574.667358	-60.302101
575.340271	-60.826130
576.013184	-61.224281
576.686096	-60.757317
577.359009	-61.116646
578.031921	-61.505272
578.704834	-61.125996
579.377747	-61.145599
580.050659	-61.085556
580.723572	-61.543274
581.396484	-62.834660
582.069397	-61.238899
582.742310	-59.773567
583.415222	-60.289745
584.088135	-61.495327
584.761047	-61.428280
585.433960	-62.526314
586.106873	-62.707245
586.779785	-61.923378
587.452698	-61.075954
588.125610	-60.685993
588.798523	-61.192101
